indx,time,flux,fluxErr
0,2460288.323766,0.9971933610713731,0.001169
1,2460288.325893,0.9963463191427976,0.001151
2,2460288.328083,0.992801143656611,0.001136
3,2460288.330194,0.9934511758332037,0.001133
4,2460288.332295,0.9951822615219454,0.001134
5,2460288.334386,0.9942232140490954,0.001131
6,2460288.336495,0.9945502302363967,0.001132
7,2460288.338605,0.992952151131481,0.001132
8,2460288.340715,0.9959532996883346,0.001134
9,2460288.342821,0.9926531363302484,0.001129
10,2460288.344932,0.9934431754371842,0.001128
11,2460288.34703,0.9906810387114162,0.001123
12,2460288.349126,0.9946732363251981,0.001132
13,2460288.351228,0.9919000990549033,0.001126
14,2460288.353335,0.9941672112769582,0.001127
15,2460288.355445,0.9918580969758004,0.001119
16,2460288.357548,0.9928671469237728,0.001114
17,2460288.359657,0.9921461112325061,0.001111
18,2460288.361748,0.9919781029160943,0.001112
19,2460288.363858,0.9926841378648243,0.001109
20,2460288.365965,0.9918500965797807,0.001109
21,2460288.368075,0.9929771523690424,0.001105
22,2460288.370188,0.9923351205884692,0.001101
23,2460288.372301,0.9951572602843841,0.001104
24,2460288.374407,0.9942532155341689,0.001098
25,2460288.376518,0.9914390762342736,0.001095
26,2460288.378624,0.9922901183608589,0.001099
27,2460288.380739,0.9927871429635767,0.001095
28,2460288.382835,0.9927581415280057,0.001095
29,2460288.384944,0.9922121144996678,0.001097
30,2460288.387053,0.9933101688533582,0.001097
31,2460288.389164,0.9940772068217377,0.001091
32,2460288.391251,0.9944762265732153,0.001089
33,2460288.393396,0.9939692014754731,0.001088
34,2460288.395587,0.9938791970202525,0.001085
35,2460288.397696,0.9930091539531206,0.001079
36,2460288.399803,0.9919010991044057,0.00108
37,2460288.401915,0.9924861280633391,0.001083
38,2460288.404025,0.9947412396913647,0.001082
39,2460288.406129,0.9927091391023856,0.001081
40,2460288.408233,0.9921321105394718,0.001075
41,2460288.410334,0.9940562057821862,0.001079
42,2460288.412442,0.993174162121025,0.001078
43,2460288.41454,0.9942882172667548,0.001076
44,2460288.416651,0.9930191544481453,0.001076
45,2460288.418758,0.9916150849467048,0.001076
46,2460288.420865,0.9919331006884841,0.001077
47,2460288.422972,0.9921481113315109,0.001076
48,2460288.42508,0.9908020447012127,0.001074
49,2460288.427186,0.9923781227170746,0.001076
50,2460288.429333,0.9934491757341988,0.001071
51,2460288.431443,0.9921201099454424,0.001066
52,2460288.433557,0.9922051141531506,0.00107
53,2460288.435655,0.9934221743976327,0.001071
54,2460288.437769,0.9945472300878894,0.001073
55,2460288.439883,0.9920571068267879,0.001068
56,2460288.441986,0.9932821674672897,0.001066
57,2460288.444098,0.9918160948966974,0.001064
58,2460288.446207,0.9920021041041531,0.001068
59,2460288.448318,0.9947332392953452,0.001066
60,2460288.450431,0.9919281004409718,0.001062
61,2460288.45255,0.9933101688533582,0.001061
62,2460288.454666,0.9938281944956275,0.001063
63,2460288.456767,0.9941512104849191,0.001061
64,2460288.458879,0.9964843259741357,0.00106
65,2460288.460989,0.9962163127074791,0.001059
66,2460288.463085,0.9946522352856467,0.001058
67,2460288.465193,0.9933151691008705,0.001057
68,2460288.467298,0.9948432447406147,0.00106
69,2460288.469409,0.9947122382557937,0.001061
70,2460288.471521,0.9948602455821564,0.00106
71,2460288.473628,0.993911198604331,0.001058
72,2460288.475737,0.9925521313305009,0.001054
73,2460288.477847,0.9923931234596113,0.001052
74,2460288.47995,0.9924451260337387,0.001049
75,2460288.482057,0.9936061835060837,0.001051
76,2460288.484169,0.9925051290038858,0.00105
77,2460288.486274,0.9922751176183222,0.00105
78,2460288.488372,0.9934261745956424,0.001052
79,2460288.490481,0.9929101490523782,0.001055
80,2460288.49258,0.9931181593488878,0.001057
81,2460288.494688,0.9923161196479227,0.001056
82,2460288.496798,0.9941862122175048,0.001056
83,2460288.498908,0.9932001634080887,0.001055
84,2460288.501009,0.9942672162272034,0.001057
85,2460288.503111,0.995119258403291,0.001059
86,2460288.505216,0.9954532749371093,0.001059
87,2460288.507327,0.9960153027574865,0.00106
88,2460288.509439,0.9958102926094842,0.001064
89,2460288.511546,0.9955212783032761,0.00106
90,2460288.513657,0.9974123719124097,0.001062
91,2460288.515745,0.9960483043910674,0.001061
92,2460288.51786,0.9950612555321489,0.001053
93,2460288.519964,0.9954952770162124,0.001053
94,2460288.522072,0.9960823060741506,0.001056
95,2460288.524185,0.9972313629524662,0.001056
96,2460288.526294,0.9935191791993704,0.001054
97,2460288.528398,0.9950472548391146,0.001053
98,2460288.530507,0.993265166625748,0.001051
99,2460288.532614,0.9960843061731556,0.001052
100,2460288.534721,0.994917248403796,0.001056
101,2460288.536829,0.9970733551310791,0.001057
102,2460288.538927,0.9955432793923299,0.001058
103,2460288.541039,0.9972133620614221,0.001061
104,2460288.543146,0.9965333283997558,0.00106
105,2460288.54525,0.9967183375577092,0.001061
106,2460288.547362,0.997628382604939,0.001061
107,2460288.549471,0.9972643645860471,0.00106
108,2460288.551587,1.0003565176476237,0.001061
109,2460288.553696,1.0001825090341971,0.001064
110,2460288.555802,0.9996674835404353,0.001061
111,2460288.557983,0.9992474627494061,0.001062
112,2460288.560088,1.000146507252109,0.001061
113,2460288.562194,0.9991444576506537,0.001062
114,2460288.564297,0.9994924748775065,0.001064
115,2460288.566402,1.0015955789811597,0.001065
116,2460288.568512,0.9997724887381926,0.001066
117,2460288.570627,1.0013135650214686,0.001068
118,2460288.572729,0.9997474875006312,0.001066
119,2460288.57484,0.9990474528489162,0.001064
120,2460288.576949,0.998785439879274,0.001067
121,2460288.579064,1.0019465963565197,0.001072
122,2460288.581179,1.00148557353589,0.001074
123,2460288.583275,1.0015895786841449,0.001073
124,2460288.58539,1.0009825486361577,0.001075
125,2460288.587501,0.999853492747891,0.001074
126,2460288.589612,1.0004075201722487,0.001075
127,2460288.591786,1.0014305708132554,0.001071
